RIn1[nm]	E[eV/atom]
0.07101292000000001	30.416249464457724
0.07494584	29.47767143767611
0.07887875999999999	28.604389927612253
0.08281168000000001	27.788120123881754
0.0867446	27.02203139309186
0.09067752000000001	26.300433912042877
0.09461044	25.618543603039964
0.09854336000000001	24.972303418142427
0.10247628	24.358245780342266
0.1064092	23.773385497037527
0.11034212000000002	23.215135519010886
0.11427504000000001	22.681240026078726
0.11820796000000001	22.169720795282345
0.12214088	21.678833853321407
0.1260738	21.207034166023004
0.13000672000000002	20.752946663427327
0.13393964	20.315342300035994
0.13787255999999998	19.893118147370583
0.14180548000000004	19.48528073900381
0.14573840000000002	19.09093205686171
0.14967132000000002	18.709257676200316
0.15360424	18.339516685526245
0.15753716	17.98103307431376
0.16147008000000002	17.633188341119386
0.16540300000000002	17.2954151216302
0.16933592000000003	16.967191673288152
0.17326884	16.64803708265191
0.17720176	16.337507085277238
0.18113468000000005	16.035190406902608
0.18506760000000003	15.740705550101394
0.18900052	15.453697963062888
0.19293344000000004	15.173837537377834
0.19686636000000005	14.90081639008862
0.20079928000000002	14.63434689217692
0.20473220000000006	14.37415991138636
0.20866511999999998	14.120003242037606
0.21259804000000002	13.871640198466299
0.21653096000000002	13.628848352044406
0.22046388	13.391418394545084
0.22439680000000004	13.1591531129746
0.22832972	12.931866462996293
0.23226264000000005	12.709382729771162
0.23619556	12.49153576648935
0.24012848000000003	12.278168302105081
0.2440614	12.069131310849581
0.24799432	11.864283437009512
0.25192724000000005	11.663490469246057
0.25586016	11.466624859409428
0.25979308000000007	11.273565281393864
0.26372600000000007	11.084196226090082
0.26765892	10.898407628938365
0.27159184000000003	10.71609452697463
0.27552476	10.537156742602743
0.27945768000000004	10.361498591624407
0.28339060000000005	10.189028613321057
0.28732352	10.019659320612258
0.29125644000000006	9.85330696851943
0.29518936	9.689891339343621
0.29912228	9.529335543125296
0.3030552	9.371565832095602
0.30698812	9.216511427954437
0.31092104000000004	9.064104360922043
0.31485396	8.914279319611087
0.31878688000000005	8.766973510854775
0.32271980000000006	8.622126528706797
0.32665272	8.479680231899424
0.33058564000000007	8.33957862911125
0.33451856	8.201767771452392
0.33845148	8.066195651627737
0.3423844000000001	7.932812109284871
0.34631732	7.801568742095675
0.35025024	7.672418822158466
0.35418316000000005	7.545317217342243
0.35811608	7.4202203172251675
0.362049	7.297085963308463
0.36598192	7.175873383211885
0.36991484	7.056543128580476
0.37384776000000003	6.939057016453797
0.37778068000000004	6.8233780738677865
0.38171360000000004	6.70947048547705
0.38564652000000005	6.597299544001874
0.38957944000000005	6.48683160331853
0.39351236000000006	6.378034034025152
0.39744528000000007	6.270875181327629
0.4013782000000001	6.165324325101533
0.40531111999999997	6.061351641996108
0.40924404000000003	5.958928169456092
0.41317696000000004	5.858025771545988
0.41710988	5.758617106469169
0.42104280000000005	5.6606755956819
0.42497572	5.564175394508917
0.42890864	5.469091364173952
0.43284156000000007	5.375399045163773
0.43677448	5.283074631850361
0.4407074	5.1920949483003405
0.44464032000000003	5.1024374252055935
0.44857324000000004	5.014080077873215
0.4525061600000001	4.927001485216882
0.45643908000000005	4.841180769695457
0.46037200000000006	4.7565975781479235
0.46430492000000007	4.673232063477089
0.46823784	4.591064867137183
0.47217076	4.5100771023833985
0.4761036800000001	4.430250338243994
0.4800366000000001	4.351566584177741
0.48396952000000004	4.274008275381879
0.48790244000000005	4.197558258717731
0.49183536000000005	4.122199779223035
0.49576828	4.047916467181972
0.4997012000000001	3.974692325725277
0.5036341200000001	3.9025117189347025
0.5075670400000001	3.83135936042728
0.5114999600000001	3.761220302396419
0.5154328800000001	3.692079925087972
0.5193658000000001	3.6239239266908996
0.5232987200000001	3.556738313622718
0.5272316400000001	3.4905093911917593
0.5311645600000001	3.4252237546185764
0.5350974800000001	3.3608682804000303
0.5390304	3.297430118000676
0.54296332	3.2348966818563145
0.54689624	3.1732556436760824
0.5508291600000002	3.112494925029578
0.5547620800000002	3.0526026902064576
0.558695	2.9935673393365576
0.5626279200000001	2.9353775017593158
0.5665608400000001	2.87802202963144
0.5704937600000002	2.8214899917629417
0.5744266800000002	2.7657706676715446
0.5783596000000001	2.7108535418462303
0.5822925200000001	2.6567282982113536
0.5862254400000001	2.603384814782663
0.5901583600000001	2.5508131585074985
0.5940912800000002	2.499003580281366
0.5980242000000001	2.4479465101338995
0.6019571200000001	2.397632552577189
0.6058900400000001	2.3480524821098303
0.6098229600000001	2.2991972388707556
0.6137558800000001	2.25105792443642
0.6176888000000001	2.2036257977562315
0.62162172	2.1568922712201655
0.62555464	2.110848906853887
0.6294875600000001	2.0654874126362195
0.6334204800000001	2.020799638934257
0.6373534000000001	1.9767775750515177
0.6412863200000001	1.9334133458850449
0.6452192400000001	1.8906992086871064
0.6491521600000001	1.8486275499276914
0.6530850800000001	1.8071908822539449
0.6570180000000001	1.7663818415429962
0.6609509200000001	1.7261931840446874
0.6648838400000001	1.6866177836108864
0.6688167600000001	1.6476486290082502
0.6727496800000001	1.6092788213114044
0.6766826000000001	1.571501571373565
0.68061552	1.5343101973720064
0.6845484400000001	1.4976981224253354
0.6884813600000002	1.4616588722805108
0.6924142800000002	1.4261860730667433
0.6963472000000002	1.3912734491140615
0.7002801200000001	1.3569148208344064
0.7042130400000002	1.3231041026628283
0.7081459600000002	1.2898353010570176
0.7120788800000002	1.2571025125528301
0.7160118000000002	1.2248999218742753
0.7199447200000001	1.1932218000956798
0.7238776400000001	1.16206250285469
0.7278105600000002	1.1314164686141215
0.7317434800000002	1.1012782169711386
0.7356764000000002	1.0716423470121157
0.7396093200000001	1.0425035357118464
0.74354224	1.0138565363753624
0.74747516	0.9856961771212305
0.7514080800000001	0.9580173594048826
0.7553410000000002	0.9308150565805597
0.75927392	0.9040843125008653
0.76320684	0.8778202401525554
0.7671397600000001	0.8520180203274288
0.7710726800000001	0.8266729003272797
0.7750056000000002	0.8017801927017745
0.7789385200000001	0.7773352740182178
0.7828714400000001	0.7533335836622523
0.7868043600000001	0.7297706226685534
0.7907372800000001	0.7066419525804779
0.7946702000000002	0.6839431943379157
0.7986031200000001	0.6616700271924216
0.8025360400000001	0.6398181876487063
0.8064689600000001	0.6183834684319383
0.8104018800000001	0.5973617174797861
0.8143348000000001	0.5767488369586591
0.8182677200000001	0.5565407823033732
0.8222006400000001	0.5367335612794992
0.8261335600000002	0.5173232330677964
0.8300664800000002	0.49830590737006464
0.8339994000000002	0.4796777435357207
0.8379323200000002	0.461434949708587
0.8418652400000002	0.44357378199335606
0.8457981600000002	0.42609054364089793
0.8497310800000002	0.4089815842522633
0.8536640000000002	0.39224329900049515
0.8575969200000001	0.37587212786995483
0.8615298400000002	0.35986455491269176
0.8654627600000002	0.34421710752105117
0.8693956800000001	0.3289263557166473
0.8733286000000001	0.31398891145464347
0.8772615200000001	0.2994014279433115
0.88119444	0.28516059897827173
0.8851273600000001	0.27126315829117953
0.8890602800000001	0.25770587891211605
0.8929932000000002	0.24448557254588632
0.8969261200000002	0.23159908896114523
0.90085904	0.21904331539266853
0.9047919600000001	0.20681517595601573
0.9087248800000002	0.19491163107427045
0.9126578000000002	0.18332967691680935
0.9165907200000002	0.17206634484944594
0.9205236400000001	0.16111870089599734
0.9244565600000001	0.150483845210573
0.9283894800000002	0.1401589115607056
0.9323224000000001	0.13014106682082272
0.9362553200000001	0.12042751047573752
0.94018824	0.11101547413419599
0.94412116	0.10190222105187363
0.94805408	0.09308504566377618
0.9519870000000002	0.08456127312587203
0.9559199200000003	0.07632825886548034
0.9598528400000002	0.06838338814049916
0.9637857600000002	0.0607240756069789
0.9677186800000002	0.053347764895012695
0.9716516000000002	0.046251928192721614
0.9755845200000002	0.0394340658380159
0.9795174400000001	0.03289170591812862
0.9834503600000001	0.02662240387656123
0.9873832800000001	0.020623742127337863
0.9913162000000001	0.014893329676488598
0.9952491200000001	0.009428801750344995
0.99918204	0.00422781943079098
1.00311496	-0.0007119307029768152
1.00704788	-0.0053927369260948765
1.0109808	-0.009816862713446284
1.01491372	-0.013986547078795653
1.01884664	-0.01790400490802213
1.02277956	-0.02157142728619288
1.02671248	-0.02499098181916537
1.0306454	-0.028164812949330376
1.03457832	-0.031095042265992134
1.03851124	-0.033783768810184966
1.04244416	-0.03623306937442283
1.04637708	-0.038444998797206864
1.05031	-0.040421590252421424
1.05424292	-0.04216485553396421
1.05817584	-0.043676785335412305
1.06210876	-0.04495934952502978
1.06604168	-0.04601449741632102
1.0699745999999999	-0.046844158033673367
1.0739075200000001	-0.0474502403741317
1.0778404400000001	-0.04783463366433427
1.0817733600000001	-0.047999207613568906
1.0857062800000001	-0.04794581266258735
1.0896392000000001	-0.04767628022827708
1.0935721200000001	-0.0471924229445273
1.0975050400000002	-0.0464960348991017
1.1014379600000002	-0.04558889186675685
1.1053708800000002	-0.044472751538630284
1.1093038	-0.043149353747963914
1.11323672	-0.0416204206922437
1.1171696400000002	-0.03988765715196152
1.1211025600000002	-0.037952750705714244
1.1250354800000002	-0.0358173719421675
1.1289684000000002	-0.033483174668670124
1.1329013200000002	-0.030951796116511332
1.1368342400000002	-0.028224857143199777
1.1407671600000002	-0.025303962431522997
1.1447000800000002	-0.022190700685622566
1.148633	-0.018886644824068988
1.15256592	-0.015393352170010033
1.15649884	-0.011712364638444939
1.16043176	-0.00784520892078966
1.1643646800000003	-0.003793396666458726
1.1682976000000003	0.0004415753379456433
1.1722305200000003	0.00485822499240296
1.17616344	0.00945508470962686
1.18009636	0.014230701243865163
1.18402928	0.019183635522176168
1.1879622	0.02431246247822738
1.1918951199999999	0.02961577088837153
1.1958280399999999	0.0350921632102521
1.1997609599999999	0.04074025542360182
1.2036938799999999	0.046558676873395655
1.2076268	0.05254607011525003
1.2115597200000001	0.058701090762936836
1.2154926400000001	0.065022407338164
1.2194255600000001	0.07150870112244068
1.2233584800000001	0.078158666010955
1.2272914000000001	0.08497100836867322
1.23122432	0.09194444688817871
1.23515724	0.09907771244980701
1.23909016	0.10636954798344611
1.24302308	0.1138187083324107
1.246956	0.12142396011909007
1.25088892	0.12918408161253048
1.2548218400000002	0.13709786259775303
1.2587547600000002	0.1451641042468692
1.2626876800000002	0.15338161899197456
1.2666206000000002	0.16174923039968814
1.27055352	0.17026577304748347
1.27448644	0.17893009240162616
1.27841936	0.18774104469666675
1.28235228	0.19669749681669035
1.2862852	0.20579832617808158
1.29021812	0.215042420613754
1.29415104	0.22442867825909785
1.2980839600000003	0.23395600743918
1.3020168800000003	0.24362332655766217
1.3059498000000003	0.2534295639870656
1.30988272	0.2633736579604089
1.31381564	0.27345455646435735
1.31774856	0.2836712171336986
1.32168148	0.2940226071472498
1.3256144	0.3045077031249166
1.32954732	0.3151254910263326
1.33348024	0.32587496605066146
1.33741316	0.3367551325376361
1.3413460800000003	0.3477650038698603
1.3452790000000003	0.3589036023765493
1.3492119200000001	0.37016995923819573
1.3531448400000001	0.3815631143926428
1.3570777600000001	0.3930821164422129
1.3610106800000001	0.40472602256214163
1.3649436000000001	0.4164938984099704
1.3688765200000002	0.4283848180363172
1.3728094400000002	0.44039786379646406
1.3767423600000002	0.45253212626322403
1.3806752800000002	0.4647867041409328
1.3846082000000004	0.4771607041803527
1.3885411200000002	0.4896532410946257
1.3924740400000002	0.5022634374764943
1.3964069600000002	0.5149904237161635
1.4003398800000002	0.5278333379205318
1.4042728000000002	0.5407913258331267
1.4082057200000002	0.5538635407551409
1.4121386400000002	0.5670491434674543
1.4160715600000002	0.5803473021534762
1.42000448	0.5937571923230869
1.4239374	0.6072779967373263
1.42787032	0.620908905334066
1.43180324	0.6346491151545508
1.43573616	0.6484978302708733
1.43966908	0.6624542617142435
1.443602	0.6765176274041207
1.44753492	0.6906871520782247
1.45146784	0.7049620672232915
1.45540076	0.7193416110067576
1.45933368	0.7338250282092287
1.4632666	0.748411570157562
1.46719952	0.7631004946590014
1.4711324399999999	0.777891065935957
1.4750653599999999	0.7927825545614651
1.47899828	0.8077742373955399
1.4829312000000001	0.8228653975221998
1.4868641200000001	0.8380553241871902
1.4907970400000001	0.8533433127365115
1.4947299600000001	0.868728664555563
1.4986628800000001	0.88421068700907
1.5025958000000001	0.8997886933816939
1.5065287200000002	0.9154620028191967
1.51046164	0.9312299402704265
1.51439456	0.947091836429951
1.51832748	0.9630470276812937
1.5222604000000002	0.9790948560407928
1.5261933200000002	0.9952346691021647
1.5301262400000002	1.0114658199816668
1.5340591600000002	1.0277876672638668
1.5379920800000002	1.044199574948065
1.5419250000000002	1.0607009123952493
1.5458579200000002	1.0772910542757588
1.54979084	1.0939693805173913
1.55372376	1.110735276254219
1.55765668	1.1275881317758696
1.5615896	1.1445273424775326
1.5655225200000003	1.1615523088103359
1.5694554400000003	1.178662436232262
1.5733883600000003	1.1958571351599723
1.5773212800000003	1.2131358209206524
1.5812542000000003	1.2304979137047303
1.5851871200000003	1.247942838519025
1.58912004	1.2654700251403548
1.59305296	1.2830789080698028
1.59698588	1.3007689264872218
1.6009188	1.318539524206674
1.60485172	1.3363901496317951
1.6087846400000003	1.3543202557121492
1.6127175600000003	1.372329299899786
1.6166504800000003	1.3904167441062063
1.6205834000000003	1.4085820546602799
1.6245163200000003	1.4268247022658256
1.6284492400000001	1.4451441619603982
1.6323821600000001	1.4635399130741353
1.6363150800000001	1.4820114391890222
1.6402480000000002	1.5005582280989076
1.6441809200000002	1.5191797717695736
1.6481138400000002	1.5378755662994426
1.6520467600000002	1.5566451118807128
1.6559796800000004	1.5754879127608412
1.6599126000000004	1.594403477204461
1.6638455200000004	1.6133913174556427
1.6677784400000002	1.6324509497008535
1.67171136	1.6515818940317426
1.67564428	1.6707836744089444
1.6795772	1.6900558186258396
1.68351012	1.7093978582728275
1.68744304	1.728809328702163
1.69137596	1.748289768992758
1.69530888	1.7678387219157432
1.6992418	1.787455733900244
1.7031747200000003	1.8071403549994083
1.7071076400000003	1.8268921388570125
1.71104056	1.8467106426742135
1.71497348	1.866595427176796
1.7189064	1.8865460565826622
1.72283932	1.9065620985697127
1.72677224	1.9266431242440878
1.73070516	1.9467887081086483
1.73463808	1.9669984280318848
1.738571	1.9872718652170676
1.74250392	2.0076086041718053
1.74643684	2.028008232677821
1.75036976	2.0484703417611048
1.7543026800000001	2.068994525662347
1.7582356000000001	2.0895803818076826
1.7621685200000001	2.110227510779824
1.7661014400000001	2.1309355162892336
1.7700343600000001	2.1517040051460175
1.7739672800000001	2.1725325872315935
1.7779002000000002	2.1934208754711078
1.7818331200000002	2.2143684858058426
1.7857660400000002	2.235375037166031
1.7896989600000002	2.2564401514439334
1.7936318800000002	2.2775634534671534
1.7975648000000002	2.298744570972269
1.8014977200000002	2.3199831345787207
1.8054306400000002	2.3412787777629434
1.8093635600000002	2.3626311368327215
1.8132964800000002	2.3840398509019685
1.8172294000000002	2.4055045618655484
1.8211623200000002	2.4270249143745386
1.8250952400000002	2.42258397302245
1.82902816	2.413739894167389
1.8329610800000002	2.404941924922975
1.8368940000000002	2.396189759504182
1.8408269200000003	2.387483094549496
1.8447598400000003	2.378821629098722
1.8486927600000003	2.3702050645711363
1.8526256800000003	2.36163310474378
1.8565586000000003	2.3531054557300983
1.8604915200000003	2.3446218259586433
1.8644244400000003	2.3361819261521526
1.86835736	2.327785469306673
1.8722902800000003	2.319432170671022
1.8762232000000005	2.311121747726527
1.8801561200000003	2.302853920166661
1.8840890400000005	2.2946284098772742
1.8880219600000003	2.286444940916776
1.8919548800000006	2.278303239496575
1.8958878000000003	2.2702030339617068
1.8998207200000006	2.262144054771781
1.9037536400000004	2.2541260344818794
1.9076865600000004	2.2461487077239166
1.9116194800000001	2.238211811187958
1.9155524	2.230315083603888
1.9194853200000002	2.2224582657231706
1.9234182400000004	2.2146411003008777
1.9273511600000002	2.206863332077748
1.9312840800000004	2.1991247077626004
1.9352170000000002	2.1914249760148214
1.9391499200000004	2.1837638874270726
1.9430828400000002	2.1761411945080806
1.9470157600000002	2.1685566516657393
1.9509486800000004	2.1610100151903
1.9548816000000002	2.1535010432377435
1.9588145200000004	2.1460294958132193
1.9627474400000002	2.1385951347549033
1.9666803600000005	2.131197723717702
1.9706132800000002	2.1238370281573715
1.9745462000000005	2.1165128153146426
1.9784791200000003	2.109224854199597
1.9824120400000005	2.101972915576077
1.9863449600000003	2.094756771946439
1.9902778800000003	2.08757619753623
1.9942108000000005	2.0804309682792264
1.9981437200000003	2.0733208618024457
2.0020766400000007	2.066245657411456
2.0060095600000003	2.059205136075645
2.0099424800000003	2.0521990804139
2.0138754000000003	2.045227274680168
2.0178083200000003	2.0382895047492595
2.0217412400000003	2.031385558102846
2.0256741600000003	2.024515223815518
2.0296070800000003	2.0176782925409746
2.0335400000000003	2.0108745564984627
2.037472920000001	2.004103809459132
2.0414058400000004	1.99736584673278
2.0453387600000004	1.9906604651545332
2.0492716800000004	1.983987463071679
2.0532046000000004	1.9773466403307716
2.0571375200000004	1.9707377982647174
2.0610704400000004	1.9641607396799803
2.0650033600000004	1.9576152688440127
2.0689362800000004	1.9511011914727125
2.0728692000000004	1.9446183147181246
2.0768021200000004	1.9381664471560534
2.0807350400000004	1.9317453987739879
2.0846679600000004	1.9253549809591182
2.0886008800000004	1.9189950064863066
2.0925338000000004	1.9126652895063967
2.0964667200000004	1.9063656455344535
2.1003996400000005	1.9000958914382544
2.1043325600000005	1.893855845426758
2.1082654800000005	1.8876453270387867
2.1121984000000005	1.8814641571318085
2.1161313200000005	1.8753121578707008
2.1200642400000005	1.8691891527168891
2.1239971600000005	1.8630949664172012
2.1279300800000005	1.8570294249932198
2.1318630000000005	1.8509923557304975
2.1357959200000005	1.8449835871679072
2.1397288400000005	1.8390029490871735
2.1436617600000005	1.833050272502413
2.1475946800000005	1.8271253896498614
2.1515276000000005	1.8212281339775809
2.1554605200000005	1.8153583401354174
2.1593934400000006	1.8095158439648658
2.1633263600000006	1.8037004824892533
2.1672592800000006	1.7979120939037596
2.1711922000000006	1.792150517565797
2.1751251200000006	1.7864155939852464
2.1790580400000006	1.7807071648149428
2.1829909600000006	1.7750250728412063
2.1869238800000006	1.7693691619743703
2.1908568000000006	1.76373927723958
2.1947897200000006	1.7581352647675166
2.1987226400000006	1.7525569717852343
2.2026555600000006	1.7470042466072282
