RIn1[nm]	E[eV/atom]
0.07501292	84.08389874241433
0.08294584	79.2586037356393
0.09087876	75.13570106041092
0.09881168000000001	71.55092122606085
0.10674460000000001	68.38873057970525
0.11467752	65.56544380248275
0.12261044	63.01890135429565
0.13054336000000002	60.701917548375434
0.13847628	58.5779857407533
0.14640920000000002	56.618383382352164
0.15434212	54.80017237108847
0.16227504	53.10478764316868
0.17020796	51.51702157741874
0.17814088	50.02428045414476
0.18607379999999998	48.61603150892227
0.19400672	47.28338583637392
0.20193964000000003	46.01877965416888
0.20987255999999999	44.81572781128604
0.21780548000000002	43.6686310613519
0.2257384	42.57262383668376
0.23367132000000002	41.52345287521055
0.24160424	40.517379596608954
0.24953716	39.55110093754969
0.25747008	38.621684664649585
0.265403	37.726516138949194
0.27333591999999995	36.86325421043262
0.28126884	36.02979444619227
0.28920176000000003	35.22423829078137
0.29713468	34.44486705697699
0.3050676	33.690119874470454
0.31300052	32.95857490082225
0.32093344	32.24893323639397
0.32886635999999997	31.560005092445422
0.33679928000000003	30.890697846240204
0.34473220000000004	30.240005684101035
0.35266511999999994	29.607000586862473
0.36059803999999995	28.990824455084493
0.36853096	28.390682205997557
0.37646388	27.8058357022055
0.3843968	27.23559839503158
0.39232972000000005	26.679330584106253
0.40026264	26.136435210184267
0.40819555999999996	25.606354110892603
0.41612847999999997	25.08856467965532
0.4240614	24.582576876824913
0.43199432	24.087930549393658
0.43992724	23.60419302182187
0.44786016	23.130956925710663
0.45579308	22.667838240435948
0.463726	22.214474520578968
0.4716589199999999	21.77052328915628
0.47959184000000005	21.335660578351714
0.48752476	20.90957960176638
0.49545767999999996	20.491989544185913
0.5033906	20.08261445657426
0.51132352	19.68119224547636
0.5192564399999999	19.28747374728961
0.52718936	18.901221878969405
0.5351222800000001	18.522210857698425
0.5430552	18.15022548288671
0.55098812	17.78506047460494
0.5589210400000001	17.426519863193334
0.56685396	17.074416425353395
0.5747868800000001	16.72857116252414
0.5827198000000001	16.388812817782092
0.59065272	16.054977427888474
0.5985856400000001	15.726907907448805
0.60651856	15.404453662451942
0.61445148	15.087470230723518
0.6223844000000002	14.775818947067535
0.63031732	14.469366631082327
0.63825024	14.167985295826234
0.6461831600000001	13.871551875678492
0.65411608	13.579947971891666
0.662049	13.293059614468419
0.6699819200000001	13.010777039117631
0.67791484	12.732994478153831
0.68584776	12.459609964303588
0.69378068	12.19052514647105
0.7017136	11.925645116595735
0.7096465200000001	11.664878246807266
0.7175794400000001	11.408136036149436
0.7255123600000001	11.155332966203662
0.7334452800000001	10.90638636499726
0.7413782000000001	10.661216278630754
0.74931112	10.419745350102911
0.75724404	10.181898704853314
0.76517696	9.947603842579397
0.77310988	9.716790534917681
0.7810428	9.489390728611902
0.78897572	9.265338453816952
0.7969086400000001	9.044569737214427
0.80484156	8.827022519639645
0.8127744800000001	8.612636577940577
0.8207074000000001	8.401353450810348
0.82864032	8.193116368352516
0.8365732400000001	7.987870185155366
0.8445061600000001	7.7855613166672555
0.85243908	7.5861376786789165
0.8603720000000001	7.389548629732438
0.86830492	7.19574491628779
0.8762378399999999	7.004678620490402
0.8841707600000001	6.816303110392241
0.89210368	6.630572992489682
0.9000366	6.447444066449307
0.9079695200000001	6.266873281901976
0.91590244	6.088818697192433
0.92383536	5.913239439978938
0.93176828	5.740095669584569
0.9397011999999999	5.569348541006981
0.9476341199999999	5.400960170499932
0.9555670400000001	5.234893602644867
0.96349996	5.071112778835442
0.97143288	4.909582507103206
0.9793658	4.750268433216192
0.98729872	4.593137012986741
0.99523164	4.438155485727869
1.0031645599999999	4.28529184880216
1.0110974799999999	4.134514833208854
1.0190304	3.9857938801593207
1.02696332	3.8390991185929373
1.03489624	3.6944013435887015
1.04282916	3.5516719956296043
1.05076208	3.41088314068012
1.058695	3.2720074510388066
1.06662792	3.1350181869296705
1.07456084	2.999889178798984
1.08249376	2.8665948102847025
1.09042668	2.735110001828584
1.0983596	2.6054101949019284
1.10629252	2.4774713368173167
1.11422544	2.3512698661009424
1.12215836	2.2267826984002816
1.13009128	2.103987212904304
1.1380242	1.9828612392537863
1.14595712	1.8633830449201696
1.15389004	1.7455313230342675
1.16182296	1.6292851806440147
1.1697558799999999	1.5146241273846677
1.1776888	1.4015280645433528
1.1856217199999999	1.2899772745019256
1.19355464	1.1799524105424624
1.20148756	1.071434487000456
1.20942048	0.9644048697516787
1.2173533999999997	0.8588452670191806
1.22528632	0.7547377204874479
1.23321924	0.6520645967118206
1.24115216	0.5508085788108481
1.24908508	0.4509526584311949
1.2570179999999997	0.3524801279737595
1.2649509199999998	0.2553745730712329
1.27288384	0.1596198653073948
1.28081676	0.06520015516846556
1.28874968	-0.027900134781706498
1.2966826	-0.11969631651180279
1.3046155199999998	-0.21020344292592696
1.3125484399999998	-0.2994363140677869
1.32048136	-0.38740948313263246
1.32841428	-0.4741372622950841
1.3363472	-0.5596337283586372
1.3442801199999999	-0.6439127282342305
1.3522130399999999	-0.7269878842534894
1.3601459599999999	-0.8088725993228074
1.36807888	-0.8895800619241108
1.3760118000000001	-0.9691232509676837
1.38394472	-1.0475149405022819
1.39187764	-1.124767704287553
1.39981056	-1.2008939202337423
1.40774348	-1.275905774713138
1.4156764000000002	-1.349815266747953
1.4236093200000002	-1.4226342120785063
1.4315422399999997	-1.4943742471164079
1.4394751599999998	-1.5650468327859848
1.4474080799999998	-1.6346632582583958
1.4553409999999998	-1.7032346445815243
1.46327392	-1.7707719482095463
1.47120684	-1.8372859644354023
1.4791397599999998	-1.9027873307291614
1.4870726799999998	-1.9672865299857492
1.4950055999999998	-2.030793893684926
1.5029385199999998	-2.093319604966158
1.51087144	-2.154873701621515
1.5188043599999999	-2.2154660790089196
1.5267372799999999	-2.275106492888497
1.5346701999999999	-2.3338045621843797
1.5426031199999999	-2.3915697716746678
1.55053604	-2.448411474611202
1.5584689600000001	-2.5043388952719816
1.56640188	-2.559361131447961
1.5743348	-2.613487156866558
1.58226772	-2.6667258235535236
1.59020064	-2.7190858641352165
1.59813356	-2.770575894083507
1.60606648	-2.8212044139040877
1.6139994	-2.8709798112711233
1.62193232	-2.9199103631089542
1.62986524	-2.968004237622843
1.63779816	-3.015269496280144
1.64573108	-3.0617140957436426
1.653664	-3.107345889758246
1.66159692	-3.152172630992233
1.66952984	-3.1962019728349027
1.67746276	-3.239441471151565
1.6853956799999998	-3.2818985859969807
1.6933285999999999	-3.323580683289034
1.7012615199999999	-3.3644950364430386
1.7091944399999999	-3.404648827968259
1.7171273599999999	-3.444049151027855
1.72506028	-3.4827030109628687
1.7329932	-3.5206173267814442
1.7409261199999997	-3.5577989326146984
1.74885904	-3.594254579139019
1.75679196	-3.62999093496747
1.76472488	-3.66501458800931
1.7726578	-3.6993320467999027
1.7805907199999997	-3.732949741801221
1.7885236399999997	-3.7658740266735613
1.79645656	-3.7981111795200837
1.80438948	-3.829667404103674
1.8123224	-3.860548831038283
1.82025532	-3.8907615189542035
1.8281882399999998	-3.9203114556386502
1.8361211599999998	-3.9492045591523146
1.84405408	-3.9774466789221634
1.851987	-4.005043596811258
1.85991992	-4.032001028166594
1.86785284	-4.058324622844785
1.8757857599999999	-4.084019966216972
1.88371868	-4.109092580152698
1.8916516000000003	-4.133547923984018
1.89958452	-4.157391395449899
1.9075174400000001	-4.180628331621635
1.91545036	-4.203264009809424
1.9233832800000001	-4.225303648451227
1.9313162	-4.246752407983599
1.9392491200000002	-4.26761539169555
1.94718204	-4.287897646565522
1.95511496	-4.307604164081898
1.9630478800000002	-4.3267398810478435
1.9709808	-4.345309680370264
1.9789137200000002	-4.363318391833679
1.98684664	-4.380770792859475
1.9947795600000002	-4.3976716092503665
2.00271248	-4.414025515921033
2.0106454	-4.4298371376148244
2.01857832	-4.445111049607082
2.02651124	-4.459851778395524
2.03444416	-4.474063802377368
2.04237708	-4.487751552514491
2.05031	-4.50091941298603
2.05824292	-4.513571721829244
2.06617584	-4.525712771568592
2.07410876	-4.537346809833555
2.08204168	-4.548478039965333
2.0899746	-4.559110621612639
2.0979075200000006	-4.569248671316955
2.10584044	-4.57889626308739
2.11377336	-4.588057428965374
2.12170628	-4.596736159579579
2.1296392	-4.604936404690971
2.13757212	-4.612662073728703
2.14550504	-4.619917036316373
2.15343796	-4.62670512278958
2.16137088	-4.633030124704489
2.1693038000000002	-4.63889579533776
2.1772367200000002	-4.644305850177865
2.1851696400000002	-4.649263967408654
2.1931025600000003	-4.65377378838409
2.2010354800000003	-4.657838918095634
2.2089684000000003	-4.661462925631626
2.2169013200000003	-4.66464934462912
2.2248342400000003	-4.667401673718423
2.2327671600000003	-4.669723376960064
2.2407000800000003	-4.671617884275073
2.2486330000000003	-4.673088591867825
2.2565659200000003	-4.67413886264255
2.2644988400000003	-4.674772026612764
2.2724317600000004	-4.674991381304417
2.2803646800000004	-4.67480019215246
2.2882976000000004	-4.674201692891288
2.2962305200000004	-4.673199085939046
2.30416344	-4.671795542775683
2.31209636	-4.669994204315409
2.32002928	-4.66779818127312
2.3279622	-4.665210554525455
2.33589512	-4.662234375466017
2.34382804	-4.658872666355121
2.35176096	-4.655128420664738
2.35969388	-4.65100460341741
2.3676268	-4.64650415152073
2.37555972	-4.641629974096407
2.38349264	-4.636384952804623
2.39142556	-4.630771942163214
2.39935848	-4.624793769862713
2.4072914	-4.618453237076128
2.41522432	-4.611753118764412
2.4231572399999997	-4.60469616397765
2.43109016	-4.597285096151477
2.43902308	-4.58952261339949
2.446956	-4.581411388801271
2.45488892	-4.572954070686373
2.4628218399999997	-4.564153282914134
2.47075476	-4.55501162514959
2.47868768	-4.545531673135281
2.4866206	-4.535715978959492
2.49455352	-4.525567071320587
2.5024864399999998	-4.515087455787392
2.51041936	-4.504279615056299
2.5183522799999998	-4.493146009204776
2.5262852000000002	-4.481689075940867
2.5342181200000002	-4.469911230849935
2.5421510400000003	-4.457814867637411
2.5500839600000003	-4.445402358368668
2.55801688	-4.432676053705363
2.5659498000000003	-4.4196382831385925
2.5738827200000003	-4.406291355218852
2.5818156400000003	-4.392637557783144
2.5897485600000003	-4.378679158178678
2.59768148	-4.364418403483803
2.6056144000000003	-4.3498575207259975
2.61354732	-4.334998717096695
2.6214802400000004	-4.319844180163621
2.6294131600000004	-4.304396078080089
2.63734608	-4.288656559791684
2.6452790000000004	-4.272627755240168
2.65321192	-4.256311775564489
2.6611448400000004	-4.239710713299647
2.6690777600000004	-4.222826642572861
2.67701068	-4.205661619296704
2.6849436000000004	-4.188217681360364
2.69287652	-4.170496848818133
2.7008094400000004	-4.152501124075713
2.70874236	-4.134232492073745
2.71667528	-4.115692920469522
2.7246082000000005	-4.096884359815863
2.73254112	-4.07780874373833
2.7404740400000005	-4.058467989109555
2.74840696	-4.0388639962219735
2.7563398800000005	-4.018998648957971
2.7642728000000005	-3.9988738149582526
2.77220572	-3.978491345787802
2.7801386400000005	-3.957853077099937
2.78807156	-3.93696082879854
2.79600448	-3.915816405197841
2.8039373999999997	-3.8944215951805887
2.8118703199999997	-3.872778172354238
2.81980324	-3.8508878952052203
2.8277361599999997	-3.8287525072511785
2.83566908	-3.8063737371915254
2.8436019999999997	-3.783753299056354
2.8515349199999998	-3.7608928923529756
2.85946784	-3.737794202211399
2.8674007599999998	-3.714458899527502
2.8753336800000002	-3.6908886411050865
2.8832666	-3.6670850697953785
2.8911995200000002	-3.643049814635747
2.89913244	-3.6187844909864797
2.90706536	-3.5942907006655638
2.9149982800000003	-3.569570032082396
2.9229312	-3.5446240603697383
2.9308641200000003	-3.5194543475140865
2.93879704	-3.4940624424845432
2.94672996	-3.4684498813602587
2.9546628800000003	-3.442618187456102
2.9625958	-3.4165688714475455
2.9705287200000003	-3.390303431493112
2.97846164	-3.363823353356487
2.98639456	-3.3371301105263993
2.99432748	-3.310225164335497
3.0022604	-3.283109964077854
3.0101933200000004	-3.2557859471250836
3.01812624	-3.228254539041105
3.02605916	-3.2005171536955843
3.03399208	-3.172575193376328
3.041925	-3.1444300489000265
3.0498579200000004	-3.116083099722053
3.05779084	-3.0875357140449817
3.0657237600000005	-3.0587892489256636
3.07365668	-3.02984505038144
3.0815896	-3.0007044534949503
3.0895225200000005	-2.9713687825177604
3.09745544	-2.9418393509730474
3.1053883600000005	-2.912117461756902
3.11332128	-2.882204407238717
3.1212542	-2.852101469360239
3.12918712	-2.8218099197338335
3.13712004	-2.791331019739278
3.1450529600000006	-2.760666020619953
3.15298588	-2.729816163577574
3.1609188	-2.6987826798662393
3.16885172	-2.6675667908850262
3.17678464	-2.636169708270075
3.1847175600000006	-2.604592633985256
3.19265048	-2.5728367604122764
3.2005834	-2.540903270439187
3.20851632	-2.508793337548623
3.21644924	-2.4765081259047754
3.22438216	-2.4440487904393895
3.2323150800000002	-2.411416476936827
3.2402480000000002	-2.378612322118346
3.2481809200000002	-2.3456374537255584
3.2561138400000003	-2.3124929906027174
3.2640467600000003	-2.279180042778254
3.2719796800000003	-2.2456997115457167
3.2799126000000007	-2.2120530895433426
3.2878455200000003	-2.1782412608331843
3.29577844	-2.1442653009793573
3.30371136	-2.110126277125302
3.31164428	-2.0758252480703696
3.3195772	-2.041363264345359
3.32751012	-2.0067413682879205
3.33544304	-1.9719605941161475
3.34337596	-1.9370219680024654
3.35130888	-1.9019265081458925
3.3592418	-1.8666752248442902
3.36717472	-1.831269120564936
3.37510764	-1.7957091900155127
3.38304056	-1.759996420213508
3.39097348	-1.7241317905549796
3.3989064	-1.6881162728830517
3.40683932	-1.6519508315555291
3.41477224	-1.6156364235113485
3.42270516	-1.5791739983370743
3.43063808	-1.5425644983323021
3.438571	-1.5058088585744684
3.44650392	-1.4689080069829141
3.45443684	-1.4318628643824631
3.46236976	-1.394674344566388
3.47030268	-1.3573433543582785
3.4782356	-1.3198707936741325
3.48616852	-1.2822575555828784
3.49410144	-1.2445045263669896
3.50203436	-1.206612585582095
3.5099672799999997	-1.168582606116118
3.5179002	-1.1304154542480713
3.52583312	-1.0921119897055531
3.53376604	-1.0536730657225792
3.54169896	-1.0150995290961058
3.54963188	-0.9763922202425475
3.5575648	-0.9375519732530133
3.56549772	-0.8985796159489219
3.57343064	-0.8594759699363026
3.5813635600000002	-0.8202418506597402
3.5892964800000002	-0.7808780674562454
3.5972294000000002	-0.7413854236078592
3.60516232	-0.701764716394301
3.6130952400000003	-0.6620167371448309
3.6210281600000003	-0.6221422712896567
3.6289610800000003	-0.5821420984109267
3.6368940000000003	-0.542016992293064
3.64482692	-0.5017677209727154
3.6527598400000003	-0.46139504678817644
3.6606927600000003	-0.42089972642837026
3.6686256800000003	-0.38028251098116517
3.6765586000000003	-0.3395441459817432
3.68449152	-0.29868537145962026
3.6924244400000004	-0.25770692198607836
3.70035736	-0.21660952672080835
3.7082902800000004	-0.1753939094576662
3.7162232000000004	-0.13406078867083604
3.72415612	-0.09261087755986264
3.7320890400000004	-0.05104488409453811
3.74002196	-0.009363511059207852
3.74795488	0.032432543903104794
3.7558878000000004	0.07434258824717688
3.7638207200000005	0.11636593448254917
3.77175364	0.15850190013082255
3.7796865599999996	0.20074980768316042
3.7876194799999996	0.24310898455864116
3.795552399999999	0.2855787630625457
3.80348532	0.3281584803454214
3.8114182399999996	0.37084747836232346
3.8193511599999996	0.4136451038323026
3.827284079999999	0.45655070819874144
3.8352169999999997	0.4995636475896639
3.8431499199999997	0.5426832827785182
3.8510828399999992	0.5859089791453806
3.85901576	0.6292401066387594
3.8669486799999997	0.6726760397369445
3.8748815999999993	0.7162161574107699
3.8828145199999993	0.7598598430861978
3.8907474399999997	0.803606484607096
3.8986803599999997	0.8474554741986537
3.9066132799999993	0.8914062084310945
3.9145461999999998	0.9354580881836894
3.9224791199999998	0.9796105186091397
3.9304120399999993	1.0238629090981646
3.9383449599999993	1.0682146732446522
3.94627788	1.1126652288107302
3.9542107999999994	1.1572139976929106
3.9621437199999994	1.201860405887642
3.97007664	1.2466038834578237
3.97800956	1.291443864499303
3.9859424799999994	1.336379787107882
3.9938754	1.381411093346781
4.001808319999999	1.4265372292135492
4.009741239999999	1.471757644608525
4.017674159999999	1.517071793302751
4.02560708	1.5624791329063559
4.0335399999999995	1.607979124837244
4.0414729199999995	1.653571234290251
4.04940584	1.6992549302063775
4.0573387599999995	1.745029685242263
4.0652716799999995	1.790894975740204
4.0732045999999995	1.836850281698149
4.0811375199999995	1.882895086740274
4.0890704399999995	1.9290288780873812
4.0970033599999995	1.975251146528156
4.10493628	2.021561386390172
4.1128692	2.067959095511412
4.12080212	2.1144437752121625
4.1287350400000005	2.1610149302665187
4.13666796	2.207672068875306
4.14460088	2.2544147026380883
4.1525338	2.301242346526049
4.1604667200000005	2.348154518855082
4.16839964	2.3951507412587945
4.17633256	2.4422305386622227
4.1842654800000005	2.4893934392555908
4.1921984	2.5366389744678792
4.20013132	2.5839666789413576
4.20806424	2.6313760905060746
4.21599716	2.6788667501541594
4.22393008	2.7264382020150375
4.231863	2.7740899933303718
4.239795920000001	2.8218216744293727
4.24772884	2.8696327987043135
4.25566176	2.9175229225866732
4.26359468	2.9654916055225824
4.2715276	3.0135384099493545
4.27946052	3.0616629012717076
4.28739344	3.1098646478386676
4.29532636	3.158143220920188
4.30325928	3.206498194684051
4.3111922	3.25492914617354
4.319125120000001	3.303435655284403
4.32705804	3.3520173047427892
4.33499096	3.4006736800831012
4.34292388	3.4494043696258387
4.3508568	3.498208964455885
4.35878972	3.547087058401101
4.36672264	3.596038248010812
4.374655560000001	3.645062132534541
4.38258848	3.694158313901071
4.3905214	3.7433263966976407
4.39845432	3.7925659881492892
4.40638724	3.8418766980982766
4.41432016	3.891258138984048
4.42225308	3.9407099258229445
4.430186	3.99023167618815
4.43811892	4.039823010190264
4.44605184	4.03609503895252
4.453984760000001	4.023561883648871
4.46191768	4.011084693789944
4.4698506	3.9986631495510028
4.47778352	3.9862969333024982
4.48571644	3.9739857295925924
4.49364936	3.961729225129975
4.50158228	3.9495271087667567
4.5095152	3.9373790714815335
4.51744812	3.925284806362493
4.52538104	3.9132440085910467
4.533313959999999	3.9012563754250227
4.541246879999999	3.8893216061825466
4.549179799999999	3.877439402225808
4.557112719999999	3.86560946694488
4.565045639999999	3.853831505741953
4.572978559999999	3.842105226015471
4.580911479999999	3.8304303371446062
4.588844399999999	3.8188065504736226
4.596777319999999	3.807233579296591
4.604710239999999	3.7957111388422033
4.612643159999999	3.784238946258643
4.620576079999999	3.7728167205985663
4.628508999999999	3.761444182804432
4.636441919999999	3.7501210556936386
4.644374839999999	3.7388470639440703
4.652307759999999	3.7276219340796177
4.660240679999999	3.716445394455916
4.668173599999999	3.705317175245975
4.676106519999999	3.694237008426416
4.684039439999999	3.683204627763204
4.691972359999999	3.67221976879817
4.699905279999999	3.6612821688349757
